"# Channel 1"
"# Trace 1"
Frequency, Formatted Data, Formatted Data
+2.00000000000E+009, -1.78978630536E+000, +0.00000000000E+000
+2.00500000000E+009, -1.72614018978E+000, +0.00000000000E+000
+2.01000000000E+009, -1.57755039044E+000, +0.00000000000E+000
+2.01500000000E+009, -1.35525635865E+000, +0.00000000000E+000
+2.02000000000E+009, -1.08899811550E+000, +0.00000000000E+000
+2.02500000000E+009, -8.41822265861E-001, +0.00000000000E+000
+2.03000000000E+009, -6.23220546311E-001, +0.00000000000E+000
+2.03500000000E+009, -4.30779392340E-001, +0.00000000000E+000
+2.04000000000E+009, -2.54033097212E-001, +0.00000000000E+000
+2.04500000000E+009, -1.40797047142E-001, +0.00000000000E+000
+2.05000000000E+009, -4.23014373832E-002, +0.00000000000E+000
+2.05500000000E+009, +4.77361239828E-002, +0.00000000000E+000
+2.06000000000E+009, +1.18065054201E-001, +0.00000000000E+000
+2.06500000000E+009, +1.37554680888E-001, +0.00000000000E+000
+2.07000000000E+009, +1.66019215494E-001, +0.00000000000E+000
+2.07500000000E+009, +1.76856676289E-001, +0.00000000000E+000
+2.08000000000E+009, +1.60417264073E-001, +0.00000000000E+000
+2.08500000000E+009, +1.51299896338E-001, +0.00000000000E+000
+2.09000000000E+009, +1.10783219321E-001, +0.00000000000E+000
+2.09500000000E+009, +6.54627727192E-002, +0.00000000000E+000
+2.10000000000E+009, -1.24130077053E-002, +0.00000000000E+000
+2.10500000000E+009, -1.01423570392E-001, +0.00000000000E+000
+2.11000000000E+009, -1.98614454636E-001, +0.00000000000E+000
+2.11500000000E+009, -3.09181836995E-001, +0.00000000000E+000
+2.12000000000E+009, -4.62222388583E-001, +0.00000000000E+000
+2.12500000000E+009, -6.52499068155E-001, +0.00000000000E+000
+2.13000000000E+009, -8.58166558169E-001, +0.00000000000E+000
+2.13500000000E+009, -1.09506779192E+000, +0.00000000000E+000
+2.14000000000E+009, -1.39206088190E+000, +0.00000000000E+000
+2.14500000000E+009, -1.71661239328E+000, +0.00000000000E+000
+2.15000000000E+009, -1.98409489380E+000, +0.00000000000E+000
+2.15500000000E+009, -2.21560132098E+000, +0.00000000000E+000
+2.16000000000E+009, -2.36641724138E+000, +0.00000000000E+000
+2.16500000000E+009, -2.33247248575E+000, +0.00000000000E+000
+2.17000000000E+009, -2.16619258469E+000, +0.00000000000E+000
+2.17500000000E+009, -1.95469405437E+000, +0.00000000000E+000
+2.18000000000E+009, -1.65142149019E+000, +0.00000000000E+000
+2.18500000000E+009, -1.38679699426E+000, +0.00000000000E+000
+2.19000000000E+009, -1.14249373405E+000, +0.00000000000E+000
+2.19500000000E+009, -9.32660919652E-001, +0.00000000000E+000
+2.20000000000E+009, -7.75405269174E-001, +0.00000000000E+000
+2.20500000000E+009, -6.80478480788E-001, +0.00000000000E+000
+2.21000000000E+009, -5.83462414515E-001, +0.00000000000E+000
+2.21500000000E+009, -5.53925256308E-001, +0.00000000000E+000
+2.22000000000E+009, -5.16222907086E-001, +0.00000000000E+000
+2.22500000000E+009, -4.92095357068E-001, +0.00000000000E+000
+2.23000000000E+009, -4.81880868618E-001, +0.00000000000E+000
+2.23500000000E+009, -4.97577220015E-001, +0.00000000000E+000
+2.24000000000E+009, -5.48038266667E-001, +0.00000000000E+000
+2.24500000000E+009, -6.29250278364E-001, +0.00000000000E+000
+2.25000000000E+009, -7.46045071979E-001, +0.00000000000E+000
+2.25500000000E+009, -9.51005134472E-001, +0.00000000000E+000
+2.26000000000E+009, -1.19779598532E+000, +0.00000000000E+000
+2.26500000000E+009, -1.56824614046E+000, +0.00000000000E+000
+2.27000000000E+009, -2.01891375049E+000, +0.00000000000E+000
+2.27500000000E+009, -2.60502040154E+000, +0.00000000000E+000
+2.28000000000E+009, -3.42988262132E+000, +0.00000000000E+000
+2.28500000000E+009, -4.37298863508E+000, +0.00000000000E+000
+2.29000000000E+009, -5.49409652521E+000, +0.00000000000E+000
+2.29500000000E+009, -6.55568205698E+000, +0.00000000000E+000
+2.30000000000E+009, -7.14616989449E+000, +0.00000000000E+000
+2.30500000000E+009, -6.88471882190E+000, +0.00000000000E+000
+2.31000000000E+009, -6.06841062972E+000, +0.00000000000E+000
+2.31500000000E+009, -5.08458970575E+000, +0.00000000000E+000
+2.32000000000E+009, -4.19480048704E+000, +0.00000000000E+000
+2.32500000000E+009, -3.50019178177E+000, +0.00000000000E+000
+2.33000000000E+009, -2.96640883705E+000, +0.00000000000E+000
+2.33500000000E+009, -2.59745839737E+000, +0.00000000000E+000
+2.34000000000E+009, -2.35793709239E+000, +0.00000000000E+000
+2.34500000000E+009, -2.24215519320E+000, +0.00000000000E+000
+2.35000000000E+009, -2.23911225516E+000, +0.00000000000E+000
+2.35500000000E+009, -2.33452515432E+000, +0.00000000000E+000
+2.36000000000E+009, -2.54473830044E+000, +0.00000000000E+000
+2.36500000000E+009, -2.87269207580E+000, +0.00000000000E+000
+2.37000000000E+009, -3.35593984998E+000, +0.00000000000E+000
+2.37500000000E+009, -3.98088548731E+000, +0.00000000000E+000
+2.38000000000E+009, -4.76431281283E+000, +0.00000000000E+000
+2.38500000000E+009, -5.62404035515E+000, +0.00000000000E+000
+2.39000000000E+009, -6.56281060861E+000, +0.00000000000E+000
+2.39500000000E+009, -7.05539743897E+000, +0.00000000000E+000
+2.40000000000E+009, -6.93356164675E+000, +0.00000000000E+000
+2.40500000000E+009, -6.19612160004E+000, +0.00000000000E+000
+2.41000000000E+009, -5.18108276673E+000, +0.00000000000E+000
+2.41500000000E+009, -4.18414850127E+000, +0.00000000000E+000
+2.42000000000E+009, -3.33970046828E+000, +0.00000000000E+000
+2.42500000000E+009, -2.65483598106E+000, +0.00000000000E+000
+2.43000000000E+009, -2.12457987668E+000, +0.00000000000E+000
+2.43500000000E+009, -1.71448278190E+000, +0.00000000000E+000
+2.44000000000E+009, -1.39531671621E+000, +0.00000000000E+000
+2.44500000000E+009, -1.16162126535E+000, +0.00000000000E+000
+2.45000000000E+009, -9.83467714589E-001, +0.00000000000E+000
+2.45500000000E+009, -8.55713648665E-001, +0.00000000000E+000
+2.46000000000E+009, -7.51325424973E-001, +0.00000000000E+000
+2.46500000000E+009, -6.93140638989E-001, +0.00000000000E+000
+2.47000000000E+009, -6.60765921983E-001, +0.00000000000E+000
+2.47500000000E+009, -6.51249441728E-001, +0.00000000000E+000
+2.48000000000E+009, -6.83570189495E-001, +0.00000000000E+000
+2.48500000000E+009, -7.33907093780E-001, +0.00000000000E+000
+2.49000000000E+009, -8.40802053224E-001, +0.00000000000E+000
+2.49500000000E+009, -9.77322022064E-001, +0.00000000000E+000
+2.50000000000E+009, -1.13978467691E+000, +0.00000000000E+000
+2.50500000000E+009, -1.35593510201E+000, +0.00000000000E+000
+2.51000000000E+009, -1.63343225810E+000, +0.00000000000E+000
+2.51500000000E+009, -1.93815980253E+000, +0.00000000000E+000
+2.52000000000E+009, -2.27327366389E+000, +0.00000000000E+000
+2.52500000000E+009, -2.58441235188E+000, +0.00000000000E+000
+2.53000000000E+009, -2.79854339665E+000, +0.00000000000E+000
+2.53500000000E+009, -2.91706410526E+000, +0.00000000000E+000
+2.54000000000E+009, -2.87689488679E+000, +0.00000000000E+000
+2.54500000000E+009, -2.68968887036E+000, +0.00000000000E+000
+2.55000000000E+009, -2.44997510382E+000, +0.00000000000E+000
+2.55500000000E+009, -2.13209064416E+000, +0.00000000000E+000
+2.56000000000E+009, -1.83667891613E+000, +0.00000000000E+000
+2.56500000000E+009, -1.55124236625E+000, +0.00000000000E+000
+2.57000000000E+009, -1.31673879067E+000, +0.00000000000E+000
+2.57500000000E+009, -1.12974560867E+000, +0.00000000000E+000
+2.58000000000E+009, -9.86204626722E-001, +0.00000000000E+000
+2.58500000000E+009, -8.88156723034E-001, +0.00000000000E+000
+2.59000000000E+009, -8.31135654496E-001, +0.00000000000E+000
+2.59500000000E+009, -8.05592927295E-001, +0.00000000000E+000
+2.60000000000E+009, -8.36253908945E-001, +0.00000000000E+000
+2.60500000000E+009, -9.05876156210E-001, +0.00000000000E+000
+2.61000000000E+009, -1.02462788240E+000, +0.00000000000E+000
+2.61500000000E+009, -1.19130828973E+000, +0.00000000000E+000
+2.62000000000E+009, -1.43010955454E+000, +0.00000000000E+000
+2.62500000000E+009, -1.74952802054E+000, +0.00000000000E+000
+2.63000000000E+009, -2.20926496479E+000, +0.00000000000E+000
+2.63500000000E+009, -2.84551225152E+000, +0.00000000000E+000
+2.64000000000E+009, -3.73339265503E+000, +0.00000000000E+000
+2.64500000000E+009, -4.96850032405E+000, +0.00000000000E+000
+2.65000000000E+009, -6.73533227935E+000, +0.00000000000E+000
+2.65500000000E+009, -9.23172230851E+000, +0.00000000000E+000
+2.66000000000E+009, -1.26721802611E+001, +0.00000000000E+000
+2.66500000000E+009, -1.59986809165E+001, +0.00000000000E+000
+2.67000000000E+009, -1.51475856365E+001, +0.00000000000E+000
+2.67500000000E+009, -1.23231441631E+001, +0.00000000000E+000
+2.68000000000E+009, -1.01941932844E+001, +0.00000000000E+000
+2.68500000000E+009, -8.84796189619E+000, +0.00000000000E+000
+2.69000000000E+009, -8.05684164616E+000, +0.00000000000E+000
+2.69500000000E+009, -7.66419992208E+000, +0.00000000000E+000
+2.70000000000E+009, -7.51843708051E+000, +0.00000000000E+000
+2.70500000000E+009, -7.45453017195E+000, +0.00000000000E+000
+2.71000000000E+009, -7.31501631063E+000, +0.00000000000E+000
+2.71500000000E+009, -7.02098263554E+000, +0.00000000000E+000
+2.72000000000E+009, -6.41184787311E+000, +0.00000000000E+000
+2.72500000000E+009, -5.56919736923E+000, +0.00000000000E+000
+2.73000000000E+009, -4.69605173124E+000, +0.00000000000E+000
+2.73500000000E+009, -3.87879552696E+000, +0.00000000000E+000
+2.74000000000E+009, -3.12358599930E+000, +0.00000000000E+000
+2.74500000000E+009, -2.47077669973E+000, +0.00000000000E+000
+2.75000000000E+009, -1.97273005010E+000, +0.00000000000E+000
+2.75500000000E+009, -1.56810210017E+000, +0.00000000000E+000
+2.76000000000E+009, -1.24236619997E+000, +0.00000000000E+000
+2.76500000000E+009, -9.90546901309E-001, +0.00000000000E+000
+2.77000000000E+009, -8.11027648014E-001, +0.00000000000E+000
+2.77500000000E+009, -6.48480105895E-001, +0.00000000000E+000
+2.78000000000E+009, -5.44965331438E-001, +0.00000000000E+000
+2.78500000000E+009, -4.70625285486E-001, +0.00000000000E+000
+2.79000000000E+009, -4.28976773256E-001, +0.00000000000E+000
+2.79500000000E+009, -3.95349344700E-001, +0.00000000000E+000
+2.80000000000E+009, -4.16545142663E-001, +0.00000000000E+000
+2.80500000000E+009, -4.26594705750E-001, +0.00000000000E+000
+2.81000000000E+009, -4.68692846871E-001, +0.00000000000E+000
+2.81500000000E+009, -5.24120544709E-001, +0.00000000000E+000
+2.82000000000E+009, -6.06742851659E-001, +0.00000000000E+000
+2.82500000000E+009, -7.09968545917E-001, +0.00000000000E+000
+2.83000000000E+009, -8.61722677359E-001, +0.00000000000E+000
+2.83500000000E+009, -1.03873297097E+000, +0.00000000000E+000
+2.84000000000E+009, -1.25838841091E+000, +0.00000000000E+000
+2.84500000000E+009, -1.49678603359E+000, +0.00000000000E+000
+2.85000000000E+009, -1.76439256632E+000, +0.00000000000E+000
+2.85500000000E+009, -2.07117092609E+000, +0.00000000000E+000
+2.86000000000E+009, -2.35366881727E+000, +0.00000000000E+000
+2.86500000000E+009, -2.59753912591E+000, +0.00000000000E+000
+2.87000000000E+009, -2.76990397177E+000, +0.00000000000E+000
+2.87500000000E+009, -2.85871868412E+000, +0.00000000000E+000
+2.88000000000E+009, -2.84041888803E+000, +0.00000000000E+000
+2.88500000000E+009, -2.71055673220E+000, +0.00000000000E+000
+2.89000000000E+009, -2.57574701195E+000, +0.00000000000E+000
+2.89500000000E+009, -2.42393574469E+000, +0.00000000000E+000
+2.90000000000E+009, -2.25637488054E+000, +0.00000000000E+000
+2.90500000000E+009, -2.14116710656E+000, +0.00000000000E+000
+2.91000000000E+009, -2.07335400212E+000, +0.00000000000E+000
+2.91500000000E+009, -2.07866920344E+000, +0.00000000000E+000
+2.92000000000E+009, -2.11335671561E+000, +0.00000000000E+000
+2.92500000000E+009, -2.23900422429E+000, +0.00000000000E+000
+2.93000000000E+009, -2.45729943322E+000, +0.00000000000E+000
+2.93500000000E+009, -2.77657892511E+000, +0.00000000000E+000
+2.94000000000E+009, -3.18182780786E+000, +0.00000000000E+000
+2.94500000000E+009, -3.69939029471E+000, +0.00000000000E+000
+2.95000000000E+009, -4.20512770897E+000, +0.00000000000E+000
+2.95500000000E+009, -4.62155611596E+000, +0.00000000000E+000
+2.96000000000E+009, -4.73697280875E+000, +0.00000000000E+000
+2.96500000000E+009, -4.57758115987E+000, +0.00000000000E+000
+2.97000000000E+009, -4.20449126749E+000, +0.00000000000E+000
+2.97500000000E+009, -3.78250408064E+000, +0.00000000000E+000
+2.98000000000E+009, -3.40335008298E+000, +0.00000000000E+000
+2.98500000000E+009, -3.12937717296E+000, +0.00000000000E+000
+2.99000000000E+009, -2.95147918878E+000, +0.00000000000E+000
+2.99500000000E+009, -2.91546462127E+000, +0.00000000000E+000
+3.00000000000E+009, -2.98963753349E+000, +0.00000000000E+000
